time[sec],v1,v2[A],v3[A],v4[mV],v5[mV],v6[nA]
0.0,0.0,0.0,0.0,0.0,0.0,0.0
0.1,16.34,-61.23046875,179.6722412109375,40.900000000000006,2566.60657051282,22.5067138671875
0.2,19.0,-58.8134765625,177.764892578125,40.20000000000002,2566.60657051282,21.7437744140625
0.30000000000000004,23.94,-53.9794921875,178.9093017578125,40.20000000000002,2504.0064102564097,21.3623046875
0.4,31.54,-42.7001953125,183.868408203125,41.20000000000002,2472.7063301282046,21.7437744140625
0.5,41.42,-32.2265625,193.023681640625,43.70000000000002,2410.1061698717945,21.7437744140625
0.6,54.72,-15.3076171875,206.756591796875,47.400000000000006,2347.506009615384,22.125244140625
0.7,71.44,3.22265625,225.067138671875,52.599999999999994,2284.9058493589737,22.88818359375
0.7999999999999999,92.34,26.5869140625,248.71826171875,59.5,2222.3056891025635,23.2696533203125
0.8999999999999999,117.04,53.9794921875,277.3284912109375,68.4,2159.7055288461534,23.651123046875
0.9999999999999999,147.44,89.4287109375,311.6607666015625,79.10000000000002,2097.105368589743,23.651123046875
1.0999999999999999,184.3,132.12890625,351.715087890625,91.80000000000001,2034.5052083333328,23.651123046875
1.2,228.0,180.46875,397.8729248046875,107.0,1940.6049679487176,22.88818359375
1.3,278.16,234.4482421875,450.897216796875,124.80000000000001,1909.3048878205122,21.3623046875
1.4000000000000001,337.06,301.318359375,511.16943359375,145.20000000000002,1815.404647435897,19.073486328125
1.5000000000000002,402.04,368.994140625,579.4525146484375,168.0,1784.104567307692,16.4031982421875
1.6000000000000003,463.98,431.8359375,656.5093994140625,193.7,1752.8044871794868,14.495849609375
1.7000000000000004,524.02,493.8720703125,744.62890625,222.0,1721.5044070512815,13.73291015625
1.8000000000000005,583.6800000000001,556.7138671875,843.81103515625,252.70000000000005,1721.5044070512815,14.8773193359375
1.9000000000000006,644.48,621.1669921875,954.8187255859375,286.20000000000005,1721.5044070512815,17.9290771484375
2.0000000000000004,709.08,690.4541015625,1079.1778564453125,322.6,1721.5044070512815,22.125244140625
2.1000000000000005,777.48,762.158203125,1216.5069580078125,362.3,1721.5044070512815,27.8472900390625
2.2000000000000006,850.0600000000001,839.501953125,1368.3319091796875,406.0,1721.5044070512815,34.7137451171875
2.3000000000000007,928.34,924.90234375,1535.4156494140625,454.4,1721.5044070512815,42.3431396484375
2.400000000000001,1012.7,1012.7197265625,1718.5211181640625,507.1,1721.5044070512815,50.35400390625
2.500000000000001,1101.6200000000001,1105.37109375,1918.02978515625,564.3000000000001,1721.5044070512815,57.6019287109375
2.600000000000001,1197.0,1206.884765625,2132.415771484375,625.9000000000001,1721.5044070512815,64.849853515625
2.700000000000001,1298.46,1314.84375,2360.1531982421875,691.1,1721.5044070512815,70.953369140625
2.800000000000001,1404.48,1423.6083984375,2596.6644287109375,758.3000000000001,1721.5044070512815,76.6754150390625
2.9000000000000012,1515.82,1543.65234375,2836.9903564453125,824.8000000000001,1721.5044070512815,81.2530517578125
3.0000000000000013,1632.8600000000001,1663.6962890625,3076.5533447265625,890.0,1721.5044070512815,84.686279296875
3.1000000000000014,1751.8,1785.3515625,3314.971923828125,954.6000000000001,1721.5044070512815,86.97509765625
3.2000000000000015,1870.3600000000001,1904.58984375,3553.77197265625,1019.9000000000001,1721.5044070512815,88.8824462890625
3.3000000000000016,1984.3600000000001,2019.7998046875,3798.675537109375,1085.7,1721.5044070512815,90.789794921875
3.4000000000000017,2089.62,2118.896484375,4053.497314453125,1153.5,1721.5044070512815,92.6971435546875
3.5000000000000018,2187.66,2219.6044921875,4321.6705322265625,1224.2,1721.5044070512815,94.2230224609375
3.600000000000002,2289.88,2329.1748046875,4603.9581298828125,1302.1000000000001,1721.5044070512815,94.9859619140625
3.700000000000002,2408.44,2454.052734375,4903.0303955078125,1388.9,1721.5044070512815,93.07861328125
3.800000000000002,2521.3,2561.2060546875,5220.4132080078125,1481.8000000000002,1721.5044070512815,88.1195068359375
3.900000000000002,2616.3,2651.4404296875,5557.6324462890625,1581.5,1721.5044070512815,78.2012939453125
4.000000000000002,2701.42,2738.4521484375,5913.9251708984375,1688.6000000000001,1721.5044070512815,62.1795654296875
4.100000000000001,2784.26,2821.435546875,6285.4766845703125,1803.3000000000002,1721.5044070512815,34.7137451171875
4.200000000000001,2862.92,2897.9736328125,6668.4722900390625,1925.4,1721.5044070512815,-8.7738037109375
4.300000000000001,2926.38,2951.1474609375,7054.901123046875,2054.4,1721.5044070512815,-64.4683837890625
4.4,2965.14,2976.9287109375,7425.689697265625,2187.4,1721.5044070512815,-143.4326171875
4.5,2965.9,2957.5927734375,7759.857177734375,2319.5,1721.5044070512815,-258.636474609375
4.6,2923.7200000000003,2896.3623046875,8028.0303955078125,2449.5,1721.5044070512815,-430.2978515625
4.699999999999999,2843.54,2798.876953125,8147.430419921875,2578.1000000000004,1721.5044070512815,-749.5880126953125
4.799999999999999,2737.14,2681.25,7838.0584716796875,2710.4,1721.5044070512815,-1540.7562255859375
4.899999999999999,2610.2200000000003,2542.67578125,6180.572509765625,2877.3,1721.5044070512815,-3816.22314453125
4.999999999999998,2456.7,2371.875,2512.359619140625,2804.0,1721.5044070512815,-6162.261962890625
5.099999999999998,2275.44,2178.515625,-1328.6590576171875,2256.7000000000003,1721.5044070512815,-7874.6795654296875
5.1999999999999975,2085.06,1985.9619140625,-4346.8475341796875,1678.1000000000001,1721.5044070512815,-9124.374389648438
5.299999999999997,1904.94,1811.1328125,-6549.4537353515625,1239.7,1721.5044070512815,-10036.087036132812
5.399999999999997,1741.16,1649.1943359375,-8157.3486328125,914.6,1721.5044070512815,-10701.751708984375
5.4999999999999964,1589.92,1500.146484375,-9330.368041992188,675.9000000000001,1721.5044070512815,-11187.362670898438
5.599999999999996,1451.98,1368.017578125,-10186.767578125,498.5,1721.5044070512815,-11542.129516601562
5.699999999999996,1333.42,1252.8076171875,-10811.614990234375,366.0,1721.5044070512815,-11800.765991210938
5.799999999999995,1234.24,1160.9619140625,-11267.852783203125,267.20000000000005,1721.5044070512815,-11989.593505859375
5.899999999999995,1154.44,1087.646484375,-11600.494384765625,193.90000000000003,1721.5044070512815,-12127.304077148438
5.999999999999995,1091.74,1028.8330078125,-11843.490600585938,140.0,1721.5044070512815,-12228.012084960938
6.099999999999994,1042.72,986.9384765625,-12020.8740234375,100.30000000000001,1721.5044070512815,-12301.254272460938
6.199999999999994,1007.76,954.7119140625,-12150.192260742188,71.5,1721.5044070512815,-12355.04150390625
6.299999999999994,983.0600000000001,933.7646484375,-12244.415283203125,50.900000000000006,1721.5044070512815,-12393.951416015625
6.399999999999993,966.72,920.068359375,-12313.461303710938,35.400000000000006,1721.5044070512815,-12422.561645507812
6.499999999999993,959.12,915.234375,-12363.815307617188,24.0,1721.5044070512815,-12443.54248046875
6.5999999999999925,956.46,914.4287109375,-12400.436401367188,15.800000000000011,1721.5044070512815,-12458.419799804688
6.699999999999992,954.5600000000001,909.5947265625,-12427.139282226562,9.5,1721.5044070512815,-12469.482421875
6.799999999999992,953.8,912.01171875,-12446.975708007812,4.6000000000000085,1721.5044070512815,-12477.874755859375
6.8999999999999915,948.48,907.177734375,-12461.090087890625,0.20000000000000284,1721.5044070512815,-12483.596801757812
6.999999999999991,937.08,885.4248046875,-12471.389770507812,-3.0999999999999943,1721.5044070512815,-12487.79296875
7.099999999999991,914.28,858.837890625,-12479.019165039062,-3.8999999999999915,1721.5044070512815,-12491.226196289062
7.19999999999999,883.12,822.5830078125,-12484.7412109375,-4.0,1721.5044070512815,-12493.515014648438
7.29999999999999,847.78,783.10546875,-12488.555908203125,-4.199999999999989,1721.5044070512815,-12495.040893554688
7.39999999999999,806.36,742.0166015625,-12491.607666015625,-4.299999999999997,1721.5044070512815,-12496.185302734375
7.499999999999989,761.14,688.8427734375,-12493.896484375,-4.699999999999989,1721.5044070512815,-12497.329711914062
7.599999999999989,714.4,642.1142578125,-12495.42236328125,-5.0,1721.5044070512815,-12497.711181640625
7.699999999999989,668.42,593.7744140625,-12496.566772460938,-5.299999999999997,1721.5044070512815,-12498.47412109375
7.799999999999988,624.72,551.8798828125,-12497.329711914062,-5.599999999999994,1721.5044070512815,-12498.855590820312
7.899999999999988,585.58,514.013671875,-12498.092651367188,-5.8999999999999915,1721.5044070512815,-12498.855590820312
7.999999999999988,550.62,480.17578125,-12498.47412109375,-6.199999999999989,1721.5044070512815,-12499.237060546875
8.099999999999987,520.6,453.5888671875,-12498.855590820312,-6.3999999999999915,1721.5044070512815,-12499.237060546875
8.199999999999987,496.66,430.224609375,-12498.855590820312,-6.5,1721.5044070512815,-12499.237060546875
8.299999999999986,475.76,408.4716796875,-12499.237060546875,-6.599999999999994,1721.5044070512815,-12499.618530273438
8.399999999999986,460.18,397.998046875,-12499.237060546875,-6.699999999999989,1721.5044070512815,-12499.618530273438
8.499999999999986,449.16,386.71875,-12499.237060546875,-6.699999999999989,1721.5044070512815,-12499.618530273438
8.599999999999985,441.94,379.4677734375,-12499.618530273438,-6.799999999999997,1721.5044070512815,-12499.618530273438
8.699999999999985,437.76,377.8564453125,-12499.618530273438,-6.799999999999997,1721.5044070512815,-12499.618530273438
8.799999999999985,436.62,378.662109375,-12499.618530273438,-6.799999999999997,1721.5044070512815,-12499.618530273438
8.899999999999984,437.76,379.4677734375,-12499.618530273438,-6.799999999999997,1721.5044070512815,-12499.618530273438
8.999999999999984,440.42,382.6904296875,-12499.618530273438,-6.799999999999997,1721.5044070512815,-12499.618530273438
9.099999999999984,444.98,390.7470703125,-12499.618530273438,-6.8999999999999915,1721.5044070512815,-12499.618530273438
9.199999999999983,450.3,394.775390625,-12499.618530273438,-7.0,1721.5044070512815,-12499.618530273438
9.299999999999983,455.24,402.0263671875,-12499.618530273438,-7.299999999999997,1721.5044070512815,-12499.618530273438
9.399999999999983,461.7,408.4716796875,-12499.618530273438,-7.599999999999994,1721.5044070512815,-12499.618530273438
9.499999999999982,467.02,413.3056640625,-12499.618530273438,-7.8999999999999915,1721.5044070512815,-12499.618530273438
9.599999999999982,471.58,414.9169921875,-12499.618530273438,-8.0,1721.5044070512815,-12499.618530273438
9.699999999999982,474.24,420.556640625,-12499.618530273438,-8.399999999999991,1721.5044070512815,-12499.618530273438
9.799999999999981,475.38,417.333984375,-12499.618530273438,-8.599999999999994,1721.5044070512815,-12499.618530273438
9.89999999999998,476.52,418.9453125,-12499.618530273438,-8.699999999999989,1721.5044070512815,-12499.618530273438
9.99999999999998,475.0,414.9169921875,-12499.618530273438,-8.699999999999989,1721.5044070512815,-12499.618530273438
10.09999999999998,472.34000000000003,412.5,-12499.618530273438,-8.5,1721.5044070512815,-12499.618530273438
10.19999999999998,467.78000000000003,406.0546875,-12499.618530273438,-8.299999999999997,1721.5044070512815,-12499.618530273438
10.29999999999998,462.84000000000003,401.220703125,-12499.618530273438,-7.8999999999999915,1721.5044070512815,-12499.618530273438
10.399999999999979,456.76,394.775390625,-12499.618530273438,-7.5,1721.5044070512815,-12499.618530273438
10.499999999999979,395.2,186.1083984375,-12499.618530273438,-7.3999999999999915,1721.5044070512815,-12499.618530273438
10.599999999999978,-91.96000000000001,-601.025390625,-12499.618530273438,-9.699999999999989,1752.8044871794868,-12499.618530273438
10.699999999999978,-932.9,-1606.494140625,-12499.618530273438,-13.899999999999991,1815.404647435897,-12499.618530273438
10.799999999999978,-1808.42,-2578.9306640625,-12499.618530273438,-15.599999999999994,1878.0048076923072,-12499.618530273438
10.899999999999977,-2645.56,-3449.853515625,-12499.618530273438,-15.599999999999994,1940.6049679487176,-12499.618530273438
10.999999999999977,-3351.98,-4162.060546875,-12499.618530273438,-15.599999999999994,2034.5052083333328,-12499.618530273438
11.099999999999977,-3901.46,-4730.859375,-12499.618530273438,-15.599999999999994,2097.105368589743,-12499.618530273438
11.199999999999976,-4351.38,-5139.3310546875,-12499.618530273438,-15.599999999999994,2191.0056089743584,-12499.618530273438
11.299999999999976,-4590.78,-5309.326171875,-12499.618530273438,-15.599999999999994,2222.3056891025635,-12499.618530273438
11.399999999999975,-4716.18,-5431.787109375,-12499.618530273438,-15.599999999999994,2316.2059294871788,-12499.618530273438
11.499999999999975,-4794.84,-5494.62890625,-12499.618530273438,-15.599999999999994,2378.8060897435894,-12499.618530273438
11.599999999999975,-4879.58,-5623.53515625,-12499.618530273438,-15.599999999999994,2472.7063301282046,-12379.837036132812
11.699999999999974,-4889.08,-5447.0947265625,-12499.618530273438,-64.3,2535.306490384615,-11113.357543945312
11.799999999999974,-4575.2,-4971.7529296875,-12494.277954101562,-89.8,2566.60657051282,-9726.715087890625
11.899999999999974,-4115.02,-4405.37109375,-11934.280395507812,-89.8,2629.20673076923,-7818.9849853515625
11.999999999999973,-3393.02,-3352.3681640625,-10918.807983398438,-89.8,2660.506810897435,-6283.5693359375
12.099999999999973,-2402.36,-2226.85546875,-9793.853759765625,-89.8,2660.506810897435,-5087.6617431640625
12.199999999999973,-1493.02,-1276.9775390625,-8712.005615234375,-89.7,2660.506810897435,-4156.8756103515625
12.299999999999972,-746.32,-583.30078125,-7706.451416015625,-86.1,2629.20673076923,-3421.783447265625
12.399999999999972,-256.5,-179.6630859375,-6803.131103515625,-82.1,2629.20673076923,-2833.9385986328125
12.499999999999972,23.56,32.2265625,-5998.992919921875,-80.0,2597.906650641025,-2355.194091796875
12.599999999999971,136.42,77.34375,-5283.355712890625,-79.3,2597.906650641025,-1963.043212890625
12.69999999999997,133.38,38.671875,-4654.693603515625,-79.3,2597.906650641025,-1641.4642333984375
12.79999999999997,83.6,-21.7529296875,-4105.377197265625,-79.6,2597.906650641025,-1379.7760009765625
12.89999999999997,26.98,-75.732421875,-3630.828857421875,-80.0,2597.906650641025,-1167.6788330078125
12.99999999999997,-18.62,-119.23828125,-3224.945068359375,-80.3,2597.906650641025,-998.3062744140625
13.09999999999997,-50.54,-141.796875,-2875.1373291015625,-80.5,2597.906650641025,-860.2142333984375
13.199999999999969,-69.92,-160.3271484375,-2576.446533203125,-80.7,2597.906650641025,-749.5880126953125
13.299999999999969,-78.66,-165.966796875,-2320.4803466796875,-80.7,2597.906650641025,-661.468505859375
13.399999999999968,-79.8,-161.9384765625,-2100.7537841796875,-80.7,2597.906650641025,-590.1336669921875
13.499999999999968,-77.9,-160.3271484375,-1911.163330078125,-80.7,2597.906650641025,-532.1502685546875
13.599999999999968,-73.34,-156.298828125,-1746.368408203125,-80.7,2597.906650641025,-484.8480224609375
13.699999999999967,-70.3,-151.46484375,-1602.935791015625,-80.7,2597.906650641025,-446.319580078125
13.799999999999967,-66.5,-149.853515625,-1477.4322509765625,-80.6,2597.906650641025,-413.51318359375
13.899999999999967,-62.32,-146.630859375,-1366.8060302734375,-80.6,2597.906650641025,-386.04736328125
13.999999999999966,-60.8,-142.6025390625,-1269.53125,-80.6,2597.906650641025,-363.1591796875
14.099999999999966,-57.76,-140.185546875,-1183.319091796875,-80.6,2597.906650641025,-342.9412841796875
14.199999999999966,-58.14,-141.796875,-1106.6436767578125,-80.6,2597.906650641025,-325.01220703125
14.299999999999965,-55.86,-136.1572265625,-1038.360595703125,-80.5,2597.906650641025,-309.3719482421875
14.399999999999965,-53.96,-136.1572265625,-976.9439697265625,-80.5,2597.906650641025,-296.0205078125
14.499999999999964,-51.68,-132.12890625,-922.0123291015625,-80.5,2597.906650641025,-283.8134765625
14.599999999999964,-48.26,-128.1005859375,-871.27685546875,-80.5,2597.906650641025,-271.6064453125
14.699999999999964,-45.6,-124.072265625,-824.737548828125,-80.5,2597.906650641025,-259.7808837890625
14.799999999999963,-43.32,-123.2666015625,-782.3944091796875,-80.5,2597.906650641025,-248.3367919921875
14.899999999999963,-41.04,-120.0439453125,-743.10302734375,-80.4,2597.906650641025,-237.6556396484375
14.999999999999963,-39.14,-118.4326171875,-706.8634033203125,-80.4,2597.906650641025,-228.118896484375
15.099999999999962,-36.86,-116.8212890625,-672.91259765625,-80.4,2597.906650641025,-218.20068359375
15.199999999999962,-34.96,-116.015625,-641.2506103515625,-80.4,2597.906650641025,-208.282470703125
15.299999999999962,-31.92,-113.5986328125,-611.114501953125,-80.4,2597.906650641025,-199.5086669921875
15.399999999999961,-31.16,-111.181640625,-583.2672119140625,-80.4,2597.906650641025,-191.1163330078125
15.499999999999961,-29.26,-109.5703125,-556.5643310546875,-80.3,2597.906650641025,-181.9610595703125
15.59999999999996,-26.98,-105.5419921875,-531.768798828125,-80.3,2597.906650641025,-173.9501953125
15.69999999999996,-25.080000000000002,-105.5419921875,-508.4991455078125,-80.3,2597.906650641025,-166.7022705078125
15.79999999999996,-24.32,-106.34765625,-487.1368408203125,-80.3,2597.906650641025,-160.5987548828125
15.89999999999996,-23.94,-103.9306640625,-466.5374755859375,-80.3,2597.906650641025,-154.11376953125
15.99999999999996,-23.94,-103.9306640625,-446.7010498046875,-80.3,2597.906650641025,-146.8658447265625
16.09999999999996,-23.18,-104.736328125,-429.534912109375,-80.3,2597.906650641025,-141.143798828125
16.19999999999996,-23.56,-103.125,-412.750244140625,-80.3,2597.906650641025,-135.4217529296875
16.29999999999996,-22.04,-100.7080078125,-397.491455078125,-80.3,2597.906650641025,-130.462646484375
16.399999999999963,-22.04,-103.125,-382.99560546875,-80.3,2597.906650641025,-126.2664794921875
16.499999999999964,-21.28,-101.513671875,-370.025634765625,-79.6,2597.906650641025,-122.4517822265625
16.599999999999966,-21.66,-99.90234375,-357.4371337890625,-76.6,2597.906650641025,-119.0185546875
16.699999999999967,-21.66,-101.513671875,-345.9930419921875,-73.9,2597.906650641025,-115.203857421875
16.79999999999997,-20.52,-99.90234375,-336.0748291015625,-71.2,2597.906650641025,-112.9150390625
16.89999999999997,-20.14,-103.9306640625,-326.9195556640625,-68.6,2597.906650641025,-111.0076904296875
16.99999999999997,-21.28,-103.9306640625,-317.7642822265625,-66.4,2597.906650641025,-108.7188720703125
17.099999999999973,-20.52,-101.513671875,-309.3719482421875,-63.9,2597.906650641025,-107.1929931640625
17.199999999999974,-20.14,-99.0966796875,-301.361083984375,-61.8,2597.906650641025,-104.522705078125
17.299999999999976,-19.76,-102.3193359375,-294.1131591796875,-60.199999999999996,2597.906650641025,-102.6153564453125
17.399999999999977,-19.38,-99.90234375,-287.2467041015625,-58.599999999999994,2597.906650641025,-101.0894775390625
17.49999999999998,-20.14,-99.90234375,-281.1431884765625,-56.4,2597.906650641025,-100.3265380859375
17.59999999999998,-18.240000000000002,-99.0966796875,-274.658203125,-55.099999999999994,2597.906650641025,-98.419189453125
17.69999999999998,-18.240000000000002,-98.291015625,-268.5546875,-53.9,2597.906650641025,-96.13037109375
17.799999999999983,-17.86,-96.6796875,-262.451171875,-52.3,2597.906650641025,-94.2230224609375
17.899999999999984,-16.72,-97.4853515625,-255.9661865234375,-50.5,2597.906650641025,-92.6971435546875
17.999999999999986,-16.34,-98.291015625,-249.8626708984375,-49.3,2597.906650641025,-90.4083251953125
18.099999999999987,-16.72,-96.6796875,-244.5220947265625,-48.199999999999996,2597.906650641025,-89.6453857421875
18.19999999999999,-15.58,-95.8740234375,-238.4185791015625,-46.4,2597.906650641025,-86.97509765625
18.29999999999999,-15.58,-95.8740234375,-233.0780029296875,-45.099999999999994,2597.906650641025,-85.8306884765625
